t,capacitor voltage,inductor current
0.0,0.0,0.05
0.02,0.001,0.049
0.04,0.00198,0.05050666467128609
0.06,0.002990133293425722,0.05443072912115746
0.08,0.0040787478758488715,0.060644802926559355
0.1,0.005291643934380058,0.0689854053925455
0.12,0.006671352042230968,0.07925556945185645
0.14,0.008256463431268096,0.09122797314054848
0.16,0.010081022894079066,0.10464854926462794
0.18,0.012173993879371625,0.1192405163314941
0.2,0.014558804206001507,0.1347087671765972
0.22,0.01725297954953345,0.15074454607484827
0.24,0.020267870471030416,0.16703034057693442
0.26,0.023608477282569106,0.18324491092454054
0.28,0.027273375501059918,0.19906837772896377
0.3,0.031254743055639196,0.21418728767893708
0.32,0.035538488809217936,0.2282995773901486
0.34,0.04010448035702091,0.24111935711548166
0.36,0.044926867499330544,0.2523814388760719
0.38,0.04997449627685198,0.26184553760407964
0.4,0.055211407028933575,0.2693000790450348
0.42,0.06059740860983427,0.2745655543694049
0.44,0.06608871969722237,0.2774973685918544
0.46,0.07163866706905946,0.27798813787976645
0.48,0.07719842982665479,0.27596939952408706
0.5,0.08271781781713652,0.2714127076083583
0.52,0.08814607196930369,0.2643300970998484
0.54,0.09343267391130065,0.2547739090471793
0.56,0.09852815209224423,0.24283597964471257
0.58,0.10338487168513849,0.22864620595627988
0.6,0.1079577958042641,0.2123705109214172
0.62,0.11220520602269243,0.1942082397410541
0.64,0.11608937081751351,0.1743890287072054
0.66,0.11957715139165762,0.15316919586119523
0.68,0.12264053530888153,0.13082771040609786
0.7000000000000001,0.12525708951700348,0.10766180444247787
0.72,0.12741032560585305,0.08398229623738518
0.74,0.12908997153060076,0.06010869878594664
0.76,0.13029214550631968,0.03636419081105026
0.78,0.13101942932254068,0.013070529516137429
0.8,0.13128083991286343,-0.009457014675209905
0.8200000000000001,0.13109169961935924,-0.03091462150586605
0.84,0.1304734071892419,-0.0510147041174563
0.86,0.12945311310689278,-0.06949043668893233
0.88,0.12806330437311414,-0.08609995507280734
0.9,0.126341305271658,-0.10063016417738725
0.92,0.12432870198811025,-0.11290009204512214
0.9400000000000001,0.1220707001472078,-0.1227637377260162
0.96,0.11961542539268748,-0.13011236802813358
0.98,0.11701317803212481,-0.13487622691872178
1.0,0.11431565349375038,-0.13702563061227593
1.02,0.11157514088150486,-0.13657143106990544
1.04,0.10884371226010675,-0.13356484059485135
1.06,0.10617241544820973,-0.12809662028485935
1.08,0.10361048304251254,-0.12029564513443279
1.1,0.10120457013982388,-0.11032686841056007
1.12,0.09899803277161268,-0.09838871739929587
1.1400000000000001,0.09703025842362675,-0.08470996158816843
1.16,0.09533605919186339,-0.06954610266936181
1.18,0.09394513713847615,-0.053175343289771554
1.2,0.09288163027268072,-0.03589419811742526
1.22,0.09216374631033221,-0.018012816434627297
1.24,0.09180348998163966,0.00014990998243237866
1.26,0.09180648818128831,0.01827137655171637
1.28,0.09217191571232264,0.03603035382562171
1.3,0.09289252278883507,0.0531120534494366
1.32,0.09395476385782381,0.06921309225057423
1.34,0.0953390257028353,0.08404627617772666
1.36,0.09701995122638983,0.09734512865015571
1.3800000000000001,0.09896685379939295,0.10886809190814058
1.4000000000000001,0.10114421563755575,0.11840233511256368
1.42,0.10351226233980702,0.12576710914341077
1.44,0.10602760452267523,0.13081659519578073
1.46,0.10864393642659084,0.13344220225510517
1.48,0.11131278047169295,0.13357427722476836
1.5,0.11398426601618832,0.13118320074212522
1.52,0.11660793003103082,0.12627985140695897
1.54,0.11913352705916999,0.1189154311069131
1.56,0.12151183568130826,0.10918065420029435
1.58,0.12369544876531414,0.09720431334896876
1.6,0.12563953503229353,0.08315124462464879
1.62,0.1273025599247865,0.06721972398566049
1.6400000000000001,0.12864695440449972,0.049638336188877766
1.6600000000000001,0.12963972112827726,0.03066236552149443
1.68,0.13025296843870715,0.010569765278458685
1.7,0.13046436374427633,-0.010343230445205014
1.72,0.13025749913537224,-0.03176678343708951
1.74,0.12962216346663044,-0.053382342765628935
1.76,0.12855451661131787,-0.0748676737482144
1.78,0.12705716313635357,-0.09590194517404191
1.8,0.12513912423287274,-0.11617079454786192
1.82,0.1228157083419155,-0.1353712914674652
1.84,0.1201082825125662,-0.1532167208542746
1.86,0.1170439480954807,-0.16944111059748074
1.8800000000000001,0.11365512588353109,-0.1838034322029565
1.9000000000000001,0.10997905723947196,-0.19609140819514176
1.92,0.10605722907556912,-0.20612486622187784
1.94,0.10193473175113156,-0.21375858696098599
1.96,0.09765956001191184,-0.21888460091048245
1.98,0.0932818679937022,-0.22143389783580816
2.0,0.08885319003698602,-0.22137752191025212
2.02,0.08442563959878098,-0.2187270352727868
2.04,0.08005109889332525,-0.21353434268802063
2.06,0.07578041203956484,-0.20589088006882963
2.08,0.07166259443818825,-0.1959261796545508
2.1,0.06774407084509723,-0.18380583446818924
2.12,0.06406795415573345,-0.16972889414987793
2.14,0.06067337627273589,-0.15392473323142125
2.16,0.05759488160810747,-0.13664944123673176
2.18,0.054861892783372834,-0.11818179153411895
2.2,0.052498256952690454,-0.09881885250978364
2.22,0.05052187990249478,-0.07887131027273869
2.24,0.04894445369704001,-0.05865857665076004
2.2600000000000002,0.047771282164024806,-0.03850375962312021
2.2800000000000002,0.047001206971562404,-0.018728575505372866
2.3000000000000003,0.04662663546145494,0.00035171687987711753
2.32,0.046633669799052486,0.01843328015895354
2.34,0.04700233540223156,0.03522848220911383
2.36,0.04770690504641384,0.050470424366927245
2.38,0.04871631353375239,0.06391714263417622
2.4,0.04999465638643591,0.07535541562939145
2.42,0.05150176469902374,0.08460411923492438
2.44,0.053193847083722226,0.09151707503827974
2.46,0.05502418858448782,0.09598534764953327
2.48,0.05694389553747849,0.09793895466814996
2.5,0.058902674630841485,0.09734796233532347
2.52,0.06084963387754796,0.09422294959600018
2.54,0.06273409286946796,0.08861483325524316
2.56,0.06450638953457283,0.08061405698945184
2.58,0.06611867067436186,0.07034915700527777
2.6,0.06752565381446742,0.05798472696965067
2.62,0.06868534835386043,0.04371881430811886
2.64,0.06955972464002282,0.02777978893630552
2.66,0.07011532041874893,0.01042273380926315
2.68,0.07032377509493419,-0.008074585785337401
2.7,0.07016228337922745,-0.02741611062084973
2.72,0.06961396116681046,-0.047292164401920356
2.74,0.06866811787877206,-0.06738434535179194
2.7600000000000002,0.06732043097173622,-0.08737055537089697
2.7800000000000002,0.06557301986431828,-0.10693008745147918
2.8000000000000003,0.0634344181152887,-0.12574869111430972
2.82,0.06091944429300251,-0.14352353598023238
2.84,0.05804897357339786,-0.15996799519580818
2.86,0.0548496136694817,-0.1748161732734003
2.88,0.05135329020401369,-0.18782710693683774
2.9,0.04759674806527694,-0.19878857272075504
2.92,0.04362097661086184,-0.20752044127349495
2.94,0.03947056778539194,-0.21387752546227662
2.96,0.035193017276146404,-0.2177518773624325
2.98,0.030837979728897756,-0.21907449790400388
3.0,0.02645648977081768,-0.21781643221178784
3.02,0.022100161126581922,-0.21398923336296846
3.04,0.01782037645932255,-0.20764478724695468
3.06,0.013667480714383458,-0.198874501287905
3.08,0.009689990688625357,-0.18780786982274097
3.1,0.005933833292170537,-0.17461043875802434
3.12,0.00244162451701005,-0.1594812016028578
3.14,-0.0007479995150471062,-0.1426494679425671
3.16,-0.0036009888738984482,-0.12437125373789902
3.18,-0.006088413948656429,-0.10492525037562277
3.2,-0.008186918956168885,-0.0846084360398168
3.22,-0.009879087676965222,-0.06373139861399402
3.24,-0.011153715649245102,-0.04261344387360105
3.2600000000000002,-0.012005984526717122,-0.0215775661145787
3.2800000000000002,-0.012437535849008696,-0.0009453605331873512
3.3000000000000003,-0.012456443059672443,0.018968042409030345
3.3200000000000003,-0.012077082211491837,0.03785894074794627
3.34,-0.011319903396532912,0.05543984462653755
3.36,-0.01021110650400216,0.07144400431197778
3.38,-0.008782226417762605,0.0856296112113341
3.4,-0.0070696341935359225,0.09778360563403644
3.42,-0.005113962080855194,0.10772503125107591
3.44,-0.0029594614558336755,0.11530788334970583
3.46,-0.0006533037888395588,0.12042340596552199
3.48,0.0017551643304708812,0.12300180166528543
3.5,0.004215200363776589,0.12301332701665639
3.52,0.006675466904109717,0.12046875646904774
3.54,0.009084842033490671,0.11541920733029853
3.56,0.011393226180096642,0.1079553285997257
3.58,0.013552332752091157,0.09820586645043569
3.6,0.015516450081099871,0.08633562898435085
3.62,0.017243162660786886,0.07254288235719239
3.64,0.018694020307930735,0.05705621933825905
3.66,0.019835144694695918,0.04013094968981945
3.68,0.020637763688492308,0.022045069292088833
3.7,0.021078665074334084,0.0030948715831568205
3.72,0.02114056250599722,-0.016409729475896064
3.74,0.0208123679164793,-0.03615009115107187
3.7600000000000002,0.020089366093457864,-0.05580387125494546
3.7800000000000002,0.018973288668358956,-0.07505011572028114
3.8000000000000003,0.017472286353953332,-0.09357432419381648
3.8200000000000003,0.015600799870077002,-0.11107341376292229
3.84,0.013379331594818557,-0.12726050253438576
3.86,0.010834121544130841,-0.14186943762563473
3.88,0.007996732791618147,-0.15465899615952047
3.9,0.004903552868427738,-0.1654166930107362
3.92,0.0015952190082130142,-0.1739621352537395
3.94,-0.0018840236968617756,-0.1801498704108633
3.96,-0.005487021105079042,-0.1838716835824024
3.98,-0.00916445477672709,-0.18505830723194988
4.0,-0.012865620921366087,-0.18368051666306243
4.0200000000000005,-0.016539231254627335,-0.17974959391137388
4.04,-0.020134223132854814,-0.17331715273676773
4.0600000000000005,-0.02360056618759017,-0.16447432747607824
4.08,-0.026890052737111734,-0.1533503385491113
4.1,-0.02995705950809396,-0.14011045724135252
4.12,-0.03275926865292101,-0.1249534018605142
4.14,-0.035258336690131294,-0.10810820633167174
4.16,-0.03742050081676473,-0.08983061061571992
4.18,-0.039217113029079126,-0.07039902987702992
4.2,-0.04062509362661972,-0.05011016596958738
4.22,-0.04162729694601147,-0.029274330451760172
4.24,-0.04221278355504667,-0.008210552889230973
4.26,-0.042376994612831294,0.012758448408220012
4.28,-0.04212182564466689,0.03331135390087767
4.3,-0.041455598566649335,0.05313330835032723
4.32,-0.04039293239964279,0.07192088448055675
4.34,-0.038954514710031654,0.08938686648825885
4.36,-0.037166777380266476,0.10526477796273463
4.38,-0.035061481821011785,0.11931308280660105
4.4,-0.03267522016487977,0.13131899290546303
4.42,-0.030048840306770505,0.1411018224965008
4.44,-0.027226803856840488,0.14851583633474053
4.46,-0.02425648713014568,0.15345254673887607
4.48,-0.021187436195368156,0.15584242328999856
4.5,-0.018070587729568186,0.15565598821939197
4.5200000000000005,-0.014957467965180347,0.1529042802095955
4.54,-0.011899382360988437,0.1476386792934211
4.5600000000000005,-0.008946608775120015,0.1399500956114754
4.58,-0.006147606862890507,0.12996753482105472
4.6000000000000005,-0.003548256166469413,0.11785606277985713
4.62,-0.0011911349108722703,0.10381420160173987
4.64,0.0008851491211625271,0.08807079814934878
4.66,0.0026465650841495025,0.0708814143484228
4.68,0.004064193371117958,0.05252429624973104
4.7,0.005114679296112579,0.03329598540799371
4.72,0.005780599004272454,0.01350664178800852
4.74,0.006050731840032624,-0.006524848042410866
4.76,0.005920234879184407,-0.026475900286928734
4.78,0.0053907168734458315,-0.04602532154733928
4.8,0.004470210442499046,-0.06485837446843519
4.82,0.003173042953130342,-0.08267174151381955
4.84,0.001519608122853951,-0.09917830859192614
4.86,-0.00046395804898457203,-0.11411169309258502
4.88,-0.0027461919108362725,-0.12723044492526941
4.9,-0.005290800809341661,-0.13832185430712107
4.92,-0.008057237895484083,-0.14720530625064124
4.94,-0.011001344020496908,-0.15373512884975307
4.96,-0.01407604659749197,-0.15780289044604162
4.98,-0.0172321044064128,-0.15933910944846805
5.0,-0.02041888659538216,-0.15831434984265647
5.0200000000000005,-0.02358517359223529,-0.15473968511389571
5.04,-0.026679967294513204,-0.14866652326848698
5.0600000000000005,-0.029653297759882943,-0.14018579571392992
5.08,-0.03245701367416154,-0.12942652279076008
5.1000000000000005,-0.03504554412997674,-0.11655377857942735
5.12,-0.03737661970156529,-0.10176608707938976
5.14,-0.03941194144315309,-0.08529229082519686
5.16,-0.04111778725965703,-0.06738794132431417
5.18,-0.042465546086143315,-0.04833126824259444
5.2,-0.043432171450995205,-0.028418790906699302
5.22,-0.04400054726912919,-0.00796064133364235
5.24,-0.04415976009580204,0.01272432745298685
5.26,-0.0439052735467423,0.033313570674408585
5.28,-0.04323900213325413,0.0534859393004207
5.3,-0.04216928334724571,0.07292674557165113
5.32,-0.04071074843581269,0.09133272665306613
5.34,-0.03888409390275137,0.10841682813804145
5.36,-0.03671575733999054,0.12391273196337593
5.38,-0.03423750270072302,0.137579057326424
5.4,-0.03148592155419454,0.14920316835248376
5.42,-0.028501858187144864,0.15860452846236747
5.44,-0.025329767617897514,0.16563754853889737
5.46,-0.022017016647119567,0.17019388397417085
5.48,-0.01861313896763615,0.172204144370927
5.5,-0.01516905608021761,0.1716389889341472
5.5200000000000005,-0.011736276301534666,0.16850959027706872
5.54,-0.008366084495993291,0.16286745932627192
5.5600000000000005,-0.005108735309467852,0.15480363408636924
5.58,-0.0020126626277404674,0.14444724505713766
5.6000000000000005,0.000876282273402286,0.13196347992651541
5.62,0.0035155518719325943,0.11755097963666762
5.64,0.005866571464665947,0.10143870688792186
5.66,0.007895345602424384,0.08388233646535435
5.68,0.009572992331731471,0.06516022431395851
5.7,0.010876196818010641,0.04556901893172436
5.72,0.011787577196645128,0.025418984290826577
5.74,0.01229595688246166,0.005029108046503389
5.76,0.012396539043391728,-0.015277927820641347
5.78,0.012090980486978901,-0.03518083461366178
5.8,0.011387363794705665,-0.0543647825457019
5.82,0.010300068143791627,-0.07252636449658506
5.84,0.008849540853859925,-0.0893783796188496
5.86,0.0070619732614829326,-0.10465436135359014
5.88,0.00496888603441113,-0.11811277844726374
5.9,0.002606630465465855,-0.12954084271758054
5.92,1.5813611114244217e-05,-0.13875786351838768
5.94,-0.0027593436592535095,-0.1456180960022765
5.96,-0.005671705579299039,-0.15001303826273943
5.98,-0.008671966344553828,-0.15187314112919575
6.0,-0.011709429167137743,-0.15116890365100685
6.0200000000000005,-0.01473280724015788,-0.14791133699464398
6.04,-0.01769103398005076,-0.14215178943866177
6.0600000000000005,-0.020534069768823996,-0.13398113522699048
6.08,-0.023213692473363808,-0.12352834007338057
6.1000000000000005,-0.02568425927483142,-0.11095842594041144
6.12,-0.02790342779363965,-0.09646986719025709
6.140000000000001,-0.029832825137444792,-0.08029145917200536
6.16,-0.0314386543208849,-0.06267870863030056
6.18,-0.03269222849349091,-0.04390980286123655
6.2,-0.03357042455071564,-0.02428122118482162
6.22,-0.03405604897441207,-0.004103057944207813
6.24,-0.03413811013329623,0.01630586920873835
6.26,-0.03381199274912146,0.03662304859579493
6.28,-0.03307953177720556,0.05652736204742689
6.3,-0.031948984536257025,0.07570415045659623
6.32,-0.0304349015271251,0.09385017746409255
6.34,-0.02855789797784325,0.11067841299467358
6.36,-0.02634432971794978,0.12592256120437728
6.38,-0.023825878493862234,0.1393412614301645
6.4,-0.021039053265258945,0.15072189589001225
6.42,-0.0180246153474587,0.15988394408336667
6.44,-0.014826936465791368,0.16668183099068287
6.46,-0.01149329984597771,0.17100722415387853
6.48,-0.008073155362900139,0.1727907434110177
6.5,-0.004617340494679785,0.17200305632134136
6.5200000000000005,-0.001177279368252958,0.16865534200480808
6.54,0.002195827471843204,0.16279911608079087
6.5600000000000005,0.005451809793459021,0.15452541946644108
6.58,0.008542318182787842,0.14396338382754953
6.6000000000000005,0.011421585859338832,0.1312781963053085
6.62,0.014047149785445003,0.1166684956161661
6.640000000000001,0.016380519697768325,0.10036324058956014
6.66,0.018387784509559527,0.08261810052829774
6.68,0.020040146520125483,0.06371142431750033
6.7,0.02131437500647549,0.043939851851427465
6.72,0.02219317204350404,0.023613636988366323
6.74,0.022665444783271368,0.0030517557931551663
6.76,0.022726479899134473,-0.017423122786938798
6.78,0.022378017443395695,-0.03748972449774814
6.8,0.02162822295344073,-0.05683323537123487
6.82,0.020491558246016034,-0.07515026544878207
6.84,0.018988552937040392,-0.09215363235404717
6.86,0.01714548028995945,-0.10757688927574736
6.88,0.014993942504444503,-0.12117852595154735
6.9,0.012570371985413557,-0.13274577640117913
6.92,0.009915456457389974,-0.14209797335871324
6.94,0.00707349699021571,-0.14908939650272107
6.96,0.004091709060161288,-0.1536115695661645
6.98,0.001019477668837998,-0.15559497009934153
7.0,-0.0020924217331488326,-0.15501012492201757
7.0200000000000005,-0.0051926242315891834,-0.15186807398891428
7.04,-0.008229985711367469,-0.14622019535321804
7.0600000000000005,-0.011154389618431829,-0.13815739398862928
7.08,-0.013917537498204414,-0.12780866726279444
7.1000000000000005,-0.016473710843460304,-0.11533906968554024
7.12,-0.01878049223717111,-0.10094710902911073
7.140000000000001,-0.020799434417753324,-0.08486161488521131
7.16,-0.02249666671545755,-0.06733812904363623
7.18,-0.023843429296330272,-0.04865487461841406
7.2,-0.024816526788698553,-0.029108367490798787
7.22,-0.02539869413851453,-0.009008739279305778
7.24,-0.025578868924100644,0.011325154403624395
7.26,-0.025352365836028158,0.03157076326259935
7.28,-0.02472095057077617,0.05140692988263336
7.3,-0.023692811973123503,0.07051895531096998
7.32,-0.022282432866904102,0.08860356277011616
7.34,-0.020510361611501778,0.1053736812213723
7.36,-0.01840288798707433,0.1205629733392152
7.38,-0.015991628520290027,0.13393003648768817
7.4,-0.013313027790536263,0.145262210446914
7.42,-0.010407783581597982,0.15437893183963594
7.44,-0.007320204944805263,0.16113458235650954
7.46,-0.004097513297675073,0.16542078586196896
7.48,-0.0007890975804356933,0.16716811815398025
7.5,0.0025542647826439116,0.1663472024137954
7.5200000000000005,0.00588120883091982,0.16296917306986672
7.54,0.009140592292317154,0.15708550076056488
7.5600000000000005,0.012282302307528453,0.14878718115621015
7.58,0.015258045930652655,0.13820330043324183
7.6000000000000005,0.018022111939317492,0.12549900002392966
7.62,0.020532091939796087,0.11087287273881528
7.640000000000001,0.022749549394572393,0.09455383132666932
7.66,0.02464062602110578,0.07679749885672865
7.68,0.026176575998240352,0.0578821778491317
7.7,0.027334219555222986,0.038104461722863914
7.72,0.028096308789680263,0.017774557771399094
7.74,0.028451799945108245,-0.002788604574396246
7.76,0.02839602785362032,-0.02326240305037592
7.78,0.0279307797926128,-0.04332561011500624
7.8,0.027064267590312677,-0.06266345852313215
7.82,0.025810998419850035,-0.08097260503037884
7.84,0.024191546319242457,-0.09796591394748869
7.86,0.022232228040292682,-0.1133769851049641
7.88,0.019964688338193398,-0.12696435481918641
7.9,0.01742540124180967,-0.1385153036081404
7.92,0.014655095169646862,-0.14784921060666323
7.94,0.011698110957513597,-0.15482040177995718
7.96,0.008601702921914454,-0.15932044701720185
7.98,0.005415293981570417,-0.16127986987859322
8.0,0.0021896965839985523,-0.16066924303193889
8.02,-0.0010236882766402255,-0.15749965210298011
8.040000000000001,-0.004173681318699828,-0.15182252062410168
8.06,-0.007210131731181861,-0.14372879884194847
8.08,-0.010084707708020831,-0.13334752917679224
8.1,-0.012751658291556677,-0.12084381095706176
8.120000000000001,-0.015168534510697912,-0.10641619652624001
8.14,-0.017296858441222713,-0.09029355978692746
8.16,-0.01910272963696126,-0.07273148656684866
8.18,-0.020557359368298233,-0.054008243732732164
8.2,-0.021637524242952875,-0.03442039062139117
8.22,-0.0223259320553807,-0.014278101998201273
8.24,-0.022611494095344725,0.006099723697444159
8.26,-0.02248949962139584,0.026390493673967598
8.28,-0.02196168974791649,0.0462730083614816
8.3,-0.021036229580686856,0.06543252700378409
8.32,-0.019727579040611176,0.08356573138122521
